M(GeV)	Sigma_quad(pp>TWt_t)(fb)	GamWt_quad(GeV)
600	1060.	37.88254222738574
700	745.	59.3208105624016
800	532.	87.62070749137365
900	388.	123.77866746460982
1000	285.	168.78539107070452
1100	212.	223.62893127005782
1200	159.	289.295973620353
1300	120.	366.7724363422175
1400	91.7	457.04377851405843
1500	70.6	561.0951700650642
1600	54.1	679.9115910692461
1700	42.	814.4778925395351
1800	32.4	965.7788351447903
1900	25.2	1134.7991147051316
2000	19.8	1322.5233794701949
