M(GeV)	Sigma_quad(pp>TWb_b)(fb)	Gamma_quad(GeV)
600	9060	35.40867462503833
700	5820	56.25168648196457
800	3860	83.98483001992105
900	2720	119.5929526286808
1000	1950	164.06075549310737
1100	1350	218.372857917819
1200	982	283.5138305773021
1300	716	360.4682138325241
1400	540	450.2205283704386
1500	408	553.7552816661182
1600	305	672.0569720595962
1700	230	806.1100914133001
1800	174	956.899126894132
1900	136	1125.4085621986426
2000	102	1312.6228784140505
